tau,Phenol_65 PINN,cb,Phenyl Acetate_65 PINN,cd
0.000000000000000000e+00,1.663213521242141724e-01,3.556422293186187744e-01,-3.938893787562847137e-04,-4.094094038009643555e-05
1.000000000000000021e-02,1.661330759525299072e-01,3.554686307907104492e-01,-1.795799471437931061e-04,1.895949244499206543e-04
2.000000000000000042e-02,1.658999174833297729e-01,3.553085923194885254e-01,-6.533926352858543396e-05,3.842785954475402832e-04
2.999999999999999889e-02,1.656102240085601807e-01,3.551802635192871094e-01,1.513538882136344910e-05,5.468279123306274414e-04
4.000000000000000083e-02,1.655220836400985718e-01,3.550293743610382080e-01,1.660962589085102081e-04,8.104965090751647949e-04
5.000000000000000278e-02,1.653652787208557129e-01,3.549523055553436279e-01,3.249547444283962250e-04,1.011297106742858887e-03
5.999999999999999778e-02,1.650658398866653442e-01,3.547666370868682861e-01,4.301131702959537506e-04,1.181632280349731445e-03
7.000000000000000666e-02,1.649093925952911377e-01,3.544908165931701660e-01,5.352334119379520416e-04,1.444377005100250244e-03
8.000000000000000167e-02,1.647010892629623413e-01,3.543048799037933350e-01,5.967044271528720856e-04,1.600258052349090576e-03
8.999999999999999667e-02,1.644550561904907227e-01,3.542158901691436768e-01,7.446794770658016205e-04,1.796148717403411865e-03
1.000000000000000056e-01,1.643004417419433594e-01,3.541098833084106445e-01,8.844523690640926361e-04,2.059407532215118408e-03
1.100000000000000006e-01,1.640039831399917603e-01,3.537874519824981689e-01,1.004567835479974747e-03,2.103380858898162842e-03
1.199999999999999956e-01,1.637777090072631836e-01,3.536977767944335938e-01,1.148686278611421585e-03,2.324171364307403564e-03
1.300000000000000044e-01,1.635797619819641113e-01,3.535230457782745361e-01,1.316970679908990860e-03,2.554543316364288330e-03
1.400000000000000133e-01,1.633987724781036377e-01,3.532343506813049316e-01,1.483818981796503067e-03,2.686627209186553955e-03
1.499999999999999944e-01,1.631176471710205078e-01,3.531840741634368896e-01,1.576412003487348557e-03,2.919457852840423584e-03
1.600000000000000033e-01,1.629228740930557251e-01,3.530529737472534180e-01,1.671713311225175858e-03,3.115169703960418701e-03
1.700000000000000122e-01,1.626363098621368408e-01,3.528734743595123291e-01,1.917820889502763748e-03,3.165453672409057617e-03
1.799999999999999933e-01,1.624784171581268311e-01,3.526669144630432129e-01,2.028985414654016495e-03,3.396280109882354736e-03
1.900000000000000022e-01,1.622234284877777100e-01,3.525725305080413818e-01,2.171756234019994736e-03,3.541529178619384766e-03
2.000000000000000111e-01,1.620436459779739380e-01,3.523745834827423096e-01,2.229389268904924393e-03,3.722295165061950684e-03
2.099999999999999922e-01,1.616861373186111450e-01,3.522023558616638184e-01,2.440135460346937180e-03,3.848947584629058838e-03
2.200000000000000011e-01,1.614876240491867065e-01,3.520023226737976074e-01,2.495499793440103531e-03,4.013635218143463135e-03
2.300000000000000100e-01,1.613165587186813354e-01,3.519046604633331299e-01,2.622056286782026291e-03,4.261739552021026611e-03
2.399999999999999911e-01,1.609980612993240356e-01,3.515921235084533691e-01,2.782336901873350143e-03,4.314988851547241211e-03
2.500000000000000000e-01,1.608472466468811035e-01,3.514336347579956055e-01,2.916856203228235245e-03,4.556015133857727051e-03
2.600000000000000089e-01,1.605685502290725708e-01,3.511939942836761475e-01,3.025531303137540817e-03,4.618890583515167236e-03
2.700000000000000178e-01,1.602925807237625122e-01,3.510479331016540527e-01,3.158732783049345016e-03,4.796922206878662109e-03
2.800000000000000266e-01,1.600913703441619873e-01,3.508903086185455322e-01,3.268939908593893051e-03,4.964806139469146729e-03
2.899999999999999800e-01,1.599198281764984131e-01,3.507750034332275391e-01,3.359236288815736771e-03,5.282357335090637207e-03
2.999999999999999889e-01,1.596060097217559814e-01,3.505944609642028809e-01,3.556147683411836624e-03,5.331732332706451416e-03
3.099999999999999978e-01,1.593663245439529419e-01,3.503375947475433350e-01,3.715449478477239609e-03,5.356639623641967773e-03
3.200000000000000067e-01,1.591002494096755981e-01,3.501552939414978027e-01,3.782533574849367142e-03,5.556061863899230957e-03
3.300000000000000155e-01,1.589490622282028198e-01,3.500098884105682373e-01,3.863192629069089890e-03,5.765184760093688965e-03
3.400000000000000244e-01,1.586536616086959839e-01,3.496141731739044189e-01,3.990715835243463516e-03,5.837857723236083984e-03
3.500000000000000333e-01,1.583534032106399536e-01,3.495517075061798096e-01,4.170851316303014755e-03,5.970932543277740479e-03
3.599999999999999867e-01,1.580719947814941406e-01,3.493523597717285156e-01,4.323718603700399399e-03,6.058059632778167725e-03
3.699999999999999956e-01,1.579151451587677002e-01,3.492354452610015869e-01,4.405962768942117691e-03,6.386488676071166992e-03
3.800000000000000044e-01,1.576315313577651978e-01,3.488609194755554199e-01,4.378318320959806442e-03,6.463780999183654785e-03
3.900000000000000133e-01,1.573291569948196411e-01,3.486730158329010010e-01,4.486064892262220383e-03,6.618082523345947266e-03
4.000000000000000222e-01,1.570888608694076538e-01,3.485089540481567383e-01,4.589039366692304611e-03,6.726294755935668945e-03
4.100000000000000311e-01,1.570053100585937500e-01,3.482989072799682617e-01,4.815222229808568954e-03,6.940677762031555176e-03
4.199999999999999845e-01,1.567039787769317627e-01,3.481771647930145264e-01,4.956307355314493179e-03,7.019944489002227783e-03
4.299999999999999933e-01,1.564410626888275146e-01,3.479122817516326904e-01,5.172004457563161850e-03,7.145285606384277344e-03
4.400000000000000022e-01,1.562502086162567139e-01,3.478154540061950684e-01,5.037633236497640610e-03,7.322922348976135254e-03
4.500000000000000111e-01,1.561069637537002563e-01,3.475079238414764404e-01,5.313390400260686874e-03,7.504113018512725830e-03
4.600000000000000200e-01,1.557409018278121948e-01,3.474794924259185791e-01,5.318337585777044296e-03,7.569320499897003174e-03
4.700000000000000289e-01,1.556848436594009399e-01,3.472907841205596924e-01,5.598969291895627975e-03,7.796853780746459961e-03
4.799999999999999822e-01,1.552987396717071533e-01,3.469934761524200439e-01,5.686435382813215256e-03,7.937476038932800293e-03
4.899999999999999911e-01,1.551539748907089233e-01,3.468689620494842529e-01,5.931488703936338425e-03,8.027628064155578613e-03
5.000000000000000000e-01,1.548093110322952271e-01,3.465822041034698486e-01,5.998556036502122879e-03,8.090458810329437256e-03
5.100000000000000089e-01,1.547140181064605713e-01,3.465030789375305176e-01,6.212946493178606033e-03,8.292481303215026855e-03
5.200000000000000178e-01,1.544440835714340210e-01,3.463872075080871582e-01,6.075003650039434433e-03,8.430860936641693115e-03
5.300000000000000266e-01,1.541758328676223755e-01,3.460578918457031250e-01,6.183163728564977646e-03,8.542753756046295166e-03
5.400000000000000355e-01,1.540408432483673096e-01,3.458650112152099609e-01,6.347637157887220383e-03,8.725009858608245850e-03
5.500000000000000444e-01,1.537344455718994141e-01,3.455905318260192871e-01,6.538663525134325027e-03,8.819065988063812256e-03
5.600000000000000533e-01,1.536510288715362549e-01,3.454232811927795410e-01,6.598948035389184952e-03,9.023092687129974365e-03
5.700000000000000622e-01,1.533441692590713501e-01,3.452247977256774902e-01,6.801302079111337662e-03,9.181313216686248779e-03
5.799999999999999600e-01,1.531186550855636597e-01,3.451065719127655029e-01,6.792741362005472183e-03,9.172469377517700195e-03
5.899999999999999689e-01,1.528528481721878052e-01,3.449331820011138916e-01,7.164543960243463516e-03,9.322725236415863037e-03
5.999999999999999778e-01,1.525039225816726685e-01,3.445950448513031006e-01,7.129567209631204605e-03,9.419053792953491211e-03
6.099999999999999867e-01,1.523761302232742310e-01,3.444658517837524414e-01,7.272221613675355911e-03,9.571120142936706543e-03
6.199999999999999956e-01,1.522978693246841431e-01,3.442490994930267334e-01,7.397687528282403946e-03,9.812019765377044678e-03
6.300000000000000044e-01,1.518282741308212280e-01,3.438860177993774414e-01,7.539669517427682877e-03,9.851135313510894775e-03
6.400000000000000133e-01,1.517984569072723389e-01,3.439290225505828857e-01,7.742726709693670273e-03,9.962432086467742920e-03
6.500000000000000222e-01,1.515503674745559692e-01,3.439042270183563232e-01,7.794259581714868546e-03,1.019738614559173584e-02
6.600000000000000311e-01,1.513230353593826294e-01,3.435560464859008789e-01,7.790073286741971970e-03,1.024566590785980225e-02
6.700000000000000400e-01,1.511071771383285522e-01,3.434759974479675293e-01,8.088069036602973938e-03,1.024799048900604248e-02
6.800000000000000488e-01,1.509742587804794312e-01,3.432571887969970703e-01,8.194447495043277740e-03,1.052834838628768921e-02
6.900000000000000577e-01,1.508076190948486328e-01,3.430283069610595703e-01,8.156513795256614685e-03,1.074483990669250488e-02
7.000000000000000666e-01,1.505733132362365723e-01,3.427719473838806152e-01,8.371534757316112518e-03,1.089607179164886475e-02
7.099999999999999645e-01,1.502437442541122437e-01,3.425830900669097900e-01,8.642178028821945190e-03,1.084977388381958008e-02
7.199999999999999734e-01,1.501423269510269165e-01,3.425036966800689697e-01,8.734581992030143738e-03,1.106438040733337402e-02
7.299999999999999822e-01,1.500363945960998535e-01,3.422456383705139160e-01,8.597483858466148376e-03,1.126104593276977539e-02
7.399999999999999911e-01,1.498243212699890137e-01,3.422090709209442139e-01,8.915582671761512756e-03,1.135445386171340942e-02
7.500000000000000000e-01,1.495859026908874512e-01,3.418925106525421143e-01,8.786752820014953613e-03,1.150005310773849487e-02
7.600000000000000089e-01,1.492934226989746094e-01,3.416833281517028809e-01,9.140158072113990784e-03,1.157870143651962280e-02
7.700000000000000178e-01,1.491279006004333496e-01,3.415915966033935547e-01,9.222032502293586731e-03,1.170778274536132812e-02
7.800000000000000266e-01,1.491184830665588379e-01,3.412988185882568359e-01,9.134816005825996399e-03,1.198261976242065430e-02
7.900000000000000355e-01,1.487396806478500366e-01,3.412547111511230469e-01,9.505640715360641479e-03,1.198596507310867310e-02
8.000000000000000444e-01,1.485991477966308594e-01,3.408957719802856445e-01,9.568531066179275513e-03,1.226800680160522461e-02
8.100000000000000533e-01,1.484449505805969238e-01,3.407208323478698730e-01,9.525459259748458862e-03,1.246501505374908447e-02
8.200000000000000622e-01,1.482414305210113525e-01,3.405810296535491943e-01,9.668210521340370178e-03,1.268475502729415894e-02
8.300000000000000711e-01,1.479936689138412476e-01,3.403791487216949463e-01,9.881934151053428650e-03,1.273477822542190552e-02
8.399999999999999689e-01,1.478125154972076416e-01,3.403367996215820312e-01,1.011254079639911652e-02,1.274789124727249146e-02
8.499999999999999778e-01,1.475495696067810059e-01,3.402318358421325684e-01,1.016498170793056488e-02,1.289757341146469116e-02
8.599999999999999867e-01,1.474143713712692261e-01,3.400866091251373291e-01,1.009802520275115967e-02,1.306726783514022827e-02
8.699999999999999956e-01,1.472031623125076294e-01,3.397424519062042236e-01,1.016721501946449280e-02,1.322883367538452148e-02
8.800000000000000044e-01,1.471407860517501831e-01,3.396295309066772461e-01,1.056292653083801270e-02,1.347373425960540771e-02
8.900000000000000133e-01,1.467685103416442871e-01,3.393540680408477783e-01,1.069701835513114929e-02,1.345343887805938721e-02
9.000000000000000222e-01,1.465967893600463867e-01,3.391149342060089111e-01,1.084350422024726868e-02,1.355993747711181641e-02
9.100000000000000311e-01,1.464835852384567261e-01,3.391208648681640625e-01,1.087806187570095062e-02,1.378720253705978394e-02
9.200000000000000400e-01,1.462091058492660522e-01,3.388118147850036621e-01,1.111438311636447906e-02,1.390935480594635010e-02
9.300000000000000488e-01,1.460044682025909424e-01,3.384978473186492920e-01,1.118462905287742615e-02,1.411359012126922607e-02
9.400000000000000577e-01,1.459218710660934448e-01,3.385372161865234375e-01,1.133994385600090027e-02,1.435902714729309082e-02
9.500000000000000666e-01,1.457706838846206665e-01,3.384377956390380859e-01,1.148680225014686584e-02,1.443348079919815063e-02
9.599999999999999645e-01,1.457267105579376221e-01,3.383092582225799561e-01,1.153465732932090759e-02,1.447083055973052979e-02
9.699999999999999734e-01,1.454058587551116943e-01,3.381668627262115479e-01,1.159297861158847809e-02,1.458983123302459717e-02
9.799999999999999822e-01,1.450999677181243896e-01,3.378260135650634766e-01,1.198177970945835114e-02,1.470398902893066406e-02
9.899999999999999911e-01,1.450508087873458862e-01,3.377015590667724609e-01,1.196116022765636444e-02,1.501675695180892944e-02
1.000000000000000000e+00,1.448900997638702393e-01,3.376869857311248779e-01,1.207630150020122528e-02,1.523828506469726562e-02
1.010000000000000009e+00,1.447484195232391357e-01,3.374291658401489258e-01,1.223670691251754761e-02,1.521769165992736816e-02
1.020000000000000018e+00,1.446150094270706177e-01,3.374664783477783203e-01,1.237911544740200043e-02,1.540605723857879639e-02
1.030000000000000027e+00,1.441957652568817139e-01,3.368902802467346191e-01,1.245048269629478455e-02,1.544908434152603149e-02
1.040000000000000036e+00,1.443210840225219727e-01,3.372562825679779053e-01,1.265323162078857422e-02,1.573356986045837402e-02
1.050000000000000044e+00,1.438948065042495728e-01,3.365968763828277588e-01,1.269256882369518280e-02,1.572272926568984985e-02
1.060000000000000053e+00,1.438449174165725708e-01,3.365052342414855957e-01,1.298805885016918182e-02,1.590154320001602173e-02
1.070000000000000062e+00,1.437097340822219849e-01,3.365681767463684082e-01,1.304193958640098572e-02,1.625871658325195312e-02
1.080000000000000071e+00,1.436526030302047729e-01,3.363172709941864014e-01,1.320926100015640259e-02,1.628168672323226929e-02
1.090000000000000080e+00,1.434454917907714844e-01,3.361737430095672607e-01,1.325278170406818390e-02,1.646628975868225098e-02
1.100000000000000089e+00,1.432050317525863647e-01,3.360465764999389648e-01,1.334337331354618073e-02,1.657851040363311768e-02
1.110000000000000098e+00,1.430768668651580811e-01,3.358469009399414062e-01,1.372549496591091156e-02,1.672769337892532349e-02
1.120000000000000107e+00,1.430369168519973755e-01,3.358922600746154785e-01,1.363283768296241760e-02,1.702492684125900269e-02
1.130000000000000115e+00,1.426935195922851562e-01,3.356720209121704102e-01,1.362727582454681396e-02,1.714199781417846680e-02
1.140000000000000124e+00,1.426146626472473145e-01,3.354742228984832764e-01,1.397609338164329529e-02,1.723860949277877808e-02
1.150000000000000133e+00,1.423323899507522583e-01,3.352748453617095947e-01,1.420003548264503479e-02,1.735681295394897461e-02
1.159999999999999920e+00,1.422388851642608643e-01,3.351303935050964355e-01,1.416635885834693909e-02,1.745615154504776001e-02
1.169999999999999929e+00,1.419965922832489014e-01,3.350204229354858398e-01,1.431713439524173737e-02,1.754780858755111694e-02
1.179999999999999938e+00,1.417819857597351074e-01,3.348116874694824219e-01,1.441322453320026398e-02,1.786985248327255249e-02
1.189999999999999947e+00,1.417200863361358643e-01,3.348178267478942871e-01,1.453294418752193451e-02,1.797851175069808960e-02
1.199999999999999956e+00,1.415090560913085938e-01,3.344132900238037109e-01,1.454040780663490295e-02,1.818071305751800537e-02
1.209999999999999964e+00,1.413493603467941284e-01,3.342795968055725098e-01,1.484174653887748718e-02,1.826383173465728760e-02
1.219999999999999973e+00,1.412459760904312134e-01,3.341279923915863037e-01,1.494426652789115906e-02,1.847163587808609009e-02
1.229999999999999982e+00,1.411405503749847412e-01,3.340340852737426758e-01,1.504195667803287506e-02,1.858273893594741821e-02
1.239999999999999991e+00,1.408215761184692383e-01,3.338005840778350830e-01,1.533708721399307251e-02,1.866815239191055298e-02
1.250000000000000000e+00,1.405472457408905029e-01,3.336065709590911865e-01,1.518774032592773438e-02,1.878156512975692749e-02
1.260000000000000009e+00,1.406600475311279297e-01,3.338209688663482666e-01,1.547077298164367676e-02,1.896899938583374023e-02
1.270000000000000018e+00,1.402894109487533569e-01,3.330873548984527588e-01,1.558202691376209259e-02,1.912128925323486328e-02
1.280000000000000027e+00,1.401102989912033081e-01,3.333711922168731689e-01,1.568594202399253845e-02,1.912419497966766357e-02
1.290000000000000036e+00,1.398846656084060669e-01,3.331658840179443359e-01,1.573957130312919617e-02,1.931174099445343018e-02
1.300000000000000044e+00,1.399786174297332764e-01,3.331273496150970459e-01,1.588544994592666626e-02,1.959107071161270142e-02
1.310000000000000053e+00,1.397977173328399658e-01,3.327825069427490234e-01,1.602873951196670532e-02,1.983111351728439331e-02
1.320000000000000062e+00,1.397742480039596558e-01,3.328451812267303467e-01,1.628969796001911163e-02,1.986344158649444580e-02
1.330000000000000071e+00,1.395813226699829102e-01,3.327334225177764893e-01,1.640495471656322479e-02,2.021412551403045654e-02
1.340000000000000080e+00,1.392603963613510132e-01,3.325755894184112549e-01,1.647345535457134247e-02,2.031780779361724854e-02
1.350000000000000089e+00,1.390408426523208618e-01,3.323148787021636963e-01,1.653670892119407654e-02,2.031380683183670044e-02
1.360000000000000098e+00,1.389225274324417114e-01,3.318552672863006592e-01,1.644756644964218140e-02,2.066848427057266235e-02
1.370000000000000107e+00,1.387730687856674194e-01,3.319885134696960449e-01,1.682092435657978058e-02,2.050851285457611084e-02
1.380000000000000115e+00,1.386318802833557129e-01,3.316771388053894043e-01,1.700277999043464661e-02,2.088327705860137939e-02
1.390000000000000124e+00,1.386407911777496338e-01,3.318735957145690918e-01,1.707311905920505524e-02,2.107936143875122070e-02
1.400000000000000133e+00,1.383564323186874390e-01,3.314099311828613281e-01,1.725219748914241791e-02,2.104338258504867554e-02
1.409999999999999920e+00,1.380633860826492310e-01,3.313138484954833984e-01,1.748257502913475037e-02,2.105129510164260864e-02
1.419999999999999929e+00,1.379302889108657837e-01,3.315125405788421631e-01,1.772759296000003815e-02,2.143641561269760132e-02
1.429999999999999938e+00,1.378936618566513062e-01,3.311861455440521240e-01,1.736463792622089386e-02,2.158273756504058838e-02
1.439999999999999947e+00,1.376360505819320679e-01,3.311274349689483643e-01,1.781268790364265442e-02,2.146957069635391235e-02
1.449999999999999956e+00,1.374336481094360352e-01,3.308920860290527344e-01,1.783500798046588898e-02,2.188050746917724609e-02
1.459999999999999964e+00,1.374190449714660645e-01,3.310833573341369629e-01,1.818995177745819092e-02,2.199994772672653198e-02
1.469999999999999973e+00,1.373212635517120361e-01,3.307026326656341553e-01,1.816012524068355560e-02,2.235794812440872192e-02
1.479999999999999982e+00,1.369972079992294312e-01,3.304159939289093018e-01,1.823269575834274292e-02,2.231899648904800415e-02
1.489999999999999991e+00,1.370805948972702026e-01,3.305164575576782227e-01,1.826409064233303070e-02,2.254658192396163940e-02
1.500000000000000000e+00,1.368887424468994141e-01,3.305041491985321045e-01,1.868286356329917908e-02,2.258431911468505859e-02
1.510000000000000009e+00,1.366245746612548828e-01,3.300548493862152100e-01,1.856336742639541626e-02,2.288369089365005493e-02
1.520000000000000018e+00,1.364294886589050293e-01,3.301547765731811523e-01,1.904691196978092194e-02,2.278507500886917114e-02
1.530000000000000027e+00,1.363132148981094360e-01,3.295558691024780273e-01,1.901620067656040192e-02,2.318421006202697754e-02
1.540000000000000036e+00,1.361036449670791626e-01,3.297771811485290527e-01,1.929230242967605591e-02,2.327536046504974365e-02
1.550000000000000044e+00,1.362736970186233521e-01,3.297150135040283203e-01,1.932456530630588531e-02,2.346214652061462402e-02
1.560000000000000053e+00,1.357717067003250122e-01,3.294622004032135010e-01,1.927958615124225616e-02,2.342017740011215210e-02
1.570000000000000062e+00,1.358408182859420776e-01,3.296245038509368896e-01,1.956561952829360962e-02,2.362700551748275757e-02
1.580000000000000071e+00,1.354344487190246582e-01,3.292194306850433350e-01,1.970523782074451447e-02,2.372094988822937012e-02
