tau,Phenol_65 PINN,cb,Phenyl Acetate_65 PINN,cd
0.000000000000000000e+00,1.663868576288223267e-01,3.556001186370849609e-01,-3.318078815937042236e-04,-4.094094038009643555e-06
1.000000000000000021e-02,1.661985516548156738e-01,3.554487228393554688e-01,-1.613534986972808838e-04,1.737177371978759766e-04
2.000000000000000042e-02,1.660063713788986206e-01,3.552904725074768066e-01,7.276888936758041382e-06,3.516487777233123779e-04
2.999999999999999889e-02,1.658105999231338501e-01,3.551256954669952393e-01,1.740353181958198547e-04,5.297809839248657227e-04
4.000000000000000083e-02,1.656114012002944946e-01,3.549551367759704590e-01,3.389692865312099457e-04,7.081143558025360107e-04
5.000000000000000278e-02,1.654088497161865234e-01,3.547789156436920166e-01,5.020254757255315781e-04,8.866973221302032471e-04
5.999999999999999778e-02,1.652031689882278442e-01,3.545973896980285645e-01,6.631063297390937805e-04,1.065474003553390503e-03
7.000000000000000666e-02,1.649945080280303955e-01,3.544112145900726318e-01,8.223636541515588760e-04,1.244518905878067017e-03
8.000000000000000167e-02,1.647830158472061157e-01,3.542205095291137695e-01,9.796109516173601151e-04,1.423817127943038940e-03
8.999999999999999667e-02,1.645688265562057495e-01,3.540256917476654053e-01,1.134928781539201736e-03,1.603376120328903198e-03
1.000000000000000056e-01,1.643521636724472046e-01,3.538273274898529053e-01,1.288350671529769897e-03,1.783225685358047485e-03
1.100000000000000006e-01,1.641331166028976440e-01,3.536255657672882080e-01,1.439824234694242477e-03,1.963343471288681030e-03
1.199999999999999956e-01,1.639118641614913940e-01,3.534209132194519043e-01,1.589347142726182938e-03,2.143789082765579224e-03
1.300000000000000044e-01,1.636885851621627808e-01,3.532135784626007080e-01,1.736915204674005508e-03,2.324480563402175903e-03
1.400000000000000133e-01,1.634634137153625488e-01,3.530039787292480469e-01,1.882517477497458458e-03,2.505462616682052612e-03
1.499999999999999944e-01,1.632364988327026367e-01,3.527924418449401855e-01,2.026240574195981026e-03,2.686735242605209351e-03
1.600000000000000033e-01,1.630079746246337891e-01,3.525792360305786133e-01,2.168042585253715515e-03,2.868276089429855347e-03
1.700000000000000122e-01,1.627779304981231689e-01,3.523646891117095947e-01,2.307990100234746933e-03,3.050062805414199829e-03
1.799999999999999933e-01,1.625465601682662964e-01,3.521490395069122314e-01,2.446026075631380081e-03,3.232087939977645874e-03
1.900000000000000022e-01,1.623139828443527222e-01,3.519325554370880127e-01,2.582247601822018623e-03,3.414381295442581177e-03
2.000000000000000111e-01,1.620803624391555786e-01,3.517155945301055908e-01,2.716584596782922745e-03,3.596868366003036499e-03
2.099999999999999922e-01,1.618457138538360596e-01,3.514983057975769043e-01,2.849131822586059570e-03,3.779571503400802612e-03
2.200000000000000011e-01,1.616101861000061035e-01,3.512809574604034424e-01,2.979928627610206604e-03,3.962483257055282593e-03
2.300000000000000100e-01,1.613740324974060059e-01,3.510638475418090820e-01,3.109039971604943275e-03,4.145551472902297974e-03
2.399999999999999911e-01,1.611372083425521851e-01,3.508470058441162109e-01,3.236385993659496307e-03,4.328783601522445679e-03
2.500000000000000000e-01,1.608999222517013550e-01,3.506308794021606445e-01,3.362075891345739365e-03,4.512090235948562622e-03
2.600000000000000089e-01,1.606621593236923218e-01,3.504154086112976074e-01,3.486152272671461105e-03,4.695538431406021118e-03
2.700000000000000178e-01,1.604241430759429932e-01,3.502009809017181396e-01,3.608619794249534607e-03,4.879076033830642700e-03
2.800000000000000266e-01,1.601858735084533691e-01,3.499875068664550781e-01,3.729491028934717178e-03,5.062598735094070435e-03
2.899999999999999800e-01,1.599474400281906128e-01,3.497753441333770752e-01,3.848952008411288261e-03,5.246188491582870483e-03
2.999999999999999889e-01,1.597089916467666626e-01,3.495645821094512939e-01,3.966935910284519196e-03,5.429785698652267456e-03
3.099999999999999978e-01,1.594705879688262939e-01,3.493553698062896729e-01,4.083492327481508255e-03,5.613345652818679810e-03
3.200000000000000067e-01,1.592322885990142822e-01,3.491477072238922119e-01,4.198702983558177948e-03,5.796808749437332153e-03
3.300000000000000155e-01,1.589941382408142090e-01,3.489417433738708496e-01,4.312533885240554810e-03,5.980174988508224487e-03
3.400000000000000244e-01,1.587562263011932373e-01,3.487375974655151367e-01,4.425175487995147705e-03,6.163451820611953735e-03
3.500000000000000333e-01,1.585186123847961426e-01,3.485353887081146240e-01,4.536561202257871628e-03,6.346505135297775269e-03
3.599999999999999867e-01,1.582814157009124756e-01,3.483351767063140869e-01,4.646889399737119675e-03,6.529439240694046021e-03
3.699999999999999956e-01,1.580446511507034302e-01,3.481369316577911377e-01,4.756051115691661835e-03,6.712105125188827515e-03
3.800000000000000044e-01,1.578083485364913940e-01,3.479407727718353271e-01,4.864177666604518890e-03,6.894569844007492065e-03
3.900000000000000133e-01,1.575725674629211426e-01,3.477467596530914307e-01,4.971259739249944687e-03,7.076691836118698120e-03
4.000000000000000222e-01,1.573372781276702881e-01,3.475548028945922852e-01,5.077471025288105011e-03,7.258523255586624146e-03
4.100000000000000311e-01,1.571027487516403198e-01,3.473650813102722168e-01,5.182664375752210617e-03,7.440034300088882446e-03
4.199999999999999845e-01,1.568686962127685547e-01,3.471775054931640625e-01,5.287240725010633469e-03,7.621105760335922241e-03
4.299999999999999933e-01,1.566353738307952881e-01,3.469921052455902100e-01,5.390923470258712769e-03,7.801812142133712769e-03
4.400000000000000022e-01,1.564028412103652954e-01,3.468090295791625977e-01,5.493892356753349304e-03,7.982123643159866333e-03
4.500000000000000111e-01,1.561709940433502197e-01,3.466280400753021240e-01,5.596213974058628082e-03,8.161868900060653687e-03
4.600000000000000200e-01,1.559399217367172241e-01,3.464493453502655029e-01,5.697948392480611801e-03,8.341137319803237915e-03
4.700000000000000289e-01,1.557095944881439209e-01,3.462726473808288574e-01,5.799072794616222382e-03,8.519943803548812866e-03
4.799999999999999822e-01,1.554801017045974731e-01,3.460981547832489014e-01,5.899766460061073303e-03,8.698087185621261597e-03
4.899999999999999911e-01,1.552514284849166870e-01,3.459258079528808594e-01,5.999957211315631866e-03,8.875731378793716431e-03
5.000000000000000000e-01,1.550235599279403687e-01,3.457554280757904053e-01,6.099841557443141937e-03,9.052772074937820435e-03
5.100000000000000089e-01,1.547966301441192627e-01,3.455873429775238037e-01,6.199344526976346970e-03,9.229172021150588989e-03
5.200000000000000178e-01,1.545705646276473999e-01,3.454209864139556885e-01,6.298469379544258118e-03,9.404901415109634399e-03
5.300000000000000266e-01,1.543452441692352295e-01,3.452566564083099365e-01,6.397468969225883484e-03,9.579908102750778198e-03
5.400000000000000355e-01,1.541208922863006592e-01,3.450942933559417725e-01,6.496226880699396133e-03,9.754266589879989624e-03
5.500000000000000444e-01,1.538974642753601074e-01,3.449337482452392578e-01,6.594897247850894928e-03,9.927909821271896362e-03
5.600000000000000533e-01,1.536749005317687988e-01,3.447749316692352295e-01,6.693465169519186020e-03,1.010072603821754456e-02
5.700000000000000622e-01,1.534531563520431519e-01,3.446179628372192383e-01,6.792059633880853653e-03,1.027286425232887268e-02
5.799999999999999600e-01,1.532323807477951050e-01,3.444625735282897949e-01,6.890487391501665115e-03,1.044419780373573303e-02
5.899999999999999689e-01,1.530125439167022705e-01,3.443089127540588379e-01,6.989066489040851593e-03,1.061474159359931946e-02
5.999999999999999778e-01,1.527935117483139038e-01,3.441568017005920410e-01,7.087714038789272308e-03,1.078444346785545349e-02
6.099999999999999867e-01,1.525753140449523926e-01,3.440060615539550781e-01,7.186520844697952271e-03,1.095331832766532898e-02
6.199999999999999956e-01,1.523582041263580322e-01,3.438569009304046631e-01,7.285424508154392242e-03,1.112132892012596130e-02
6.300000000000000044e-01,1.521418839693069458e-01,3.437091112136840820e-01,7.384620606899261475e-03,1.128853484988212585e-02
6.400000000000000133e-01,1.519262939691543579e-01,3.435623645782470703e-01,7.484070956707000732e-03,1.145483180880546570e-02
6.500000000000000222e-01,1.517117470502853394e-01,3.434170782566070557e-01,7.583766244351863861e-03,1.162026450037956238e-02
6.600000000000000311e-01,1.514980047941207886e-01,3.432728350162506104e-01,7.683710660785436630e-03,1.178477331995964050e-02
6.700000000000000400e-01,1.512851417064666748e-01,3.431297242641448975e-01,7.784109562635421753e-03,1.194841042160987854e-02
6.800000000000000488e-01,1.510731726884841919e-01,3.429877460002899170e-01,7.884894497692584991e-03,1.211115345358848572e-02
6.900000000000000577e-01,1.508619934320449829e-01,3.428466320037841797e-01,7.986096665263175964e-03,1.227297261357307434e-02
7.000000000000000666e-01,1.506516933441162109e-01,3.427064418792724609e-01,8.087783120572566986e-03,1.243391260504722595e-02
7.099999999999999645e-01,1.504422873258590698e-01,3.425671756267547607e-01,8.189816027879714966e-03,1.259388402104377747e-02
7.199999999999999734e-01,1.502336114645004272e-01,3.424286842346191406e-01,8.292529731988906860e-03,1.275295391678810120e-02
7.299999999999999822e-01,1.500258147716522217e-01,3.422908484935760498e-01,8.395673707127571106e-03,1.291111484169960022e-02
7.399999999999999911e-01,1.498187333345413208e-01,3.421536684036254883e-01,8.499286137521266937e-03,1.306837424635887146e-02
7.500000000000000000e-01,1.496125012636184692e-01,3.420170545578002930e-01,8.603500202298164368e-03,1.322473958134651184e-02
7.600000000000000089e-01,1.494070142507553101e-01,3.418809771537780762e-01,8.708408102393150330e-03,1.338010653853416443e-02
7.700000000000000178e-01,1.492023766040802002e-01,3.417456448078155518e-01,8.813953027129173279e-03,1.353453472256660461e-02
7.800000000000000266e-01,1.489984840154647827e-01,3.416103124618530273e-01,8.919946849346160889e-03,1.368809863924980164e-02
7.900000000000000355e-01,1.487953364849090576e-01,3.414755761623382568e-01,9.026682004332542419e-03,1.384079083800315857e-02
8.000000000000000444e-01,1.485930085182189941e-01,3.413411974906921387e-01,9.134110063314437866e-03,1.399250701069831848e-02
8.100000000000000533e-01,1.483914107084274292e-01,3.412070572376251221e-01,9.242190048098564148e-03,1.414337381720542908e-02
8.200000000000000622e-01,1.481905728578567505e-01,3.410731852054595947e-01,9.351039305329322815e-03,1.429332420229911804e-02
8.300000000000000711e-01,1.479902714490890503e-01,3.409392237663269043e-01,9.460450150072574615e-03,1.444238796830177307e-02
8.399999999999999689e-01,1.477909237146377563e-01,3.408057987689971924e-01,9.570642374455928802e-03,1.459059491753578186e-02
8.499999999999999778e-01,1.475921869277954102e-01,3.406721949577331543e-01,9.681660681962966919e-03,1.473793014883995056e-02
8.599999999999999867e-01,1.473941653966903687e-01,3.405387699604034424e-01,9.793264791369438171e-03,1.488442346453666687e-02
8.699999999999999956e-01,1.471968442201614380e-01,3.404051959514617920e-01,9.905681014060974121e-03,1.502999290823936462e-02
8.800000000000000044e-01,1.470002532005310059e-01,3.402717113494873047e-01,1.001877617090940475e-02,1.517478004097938538e-02
8.900000000000000133e-01,1.468043029308319092e-01,3.401382267475128174e-01,1.013268623501062393e-02,1.531876251101493835e-02
9.000000000000000222e-01,1.466090828180313110e-01,3.400044143199920654e-01,1.024725846946239471e-02,1.546193286776542664e-02
9.100000000000000311e-01,1.464145779609680176e-01,3.398707509040832520e-01,1.036263629794120789e-02,1.560428366065025330e-02
9.200000000000000400e-01,1.462206095457077026e-01,3.397368192672729492e-01,1.047878526151180267e-02,1.574581488966941833e-02
9.300000000000000488e-01,1.460273563861846924e-01,3.396026492118835449e-01,1.059569511562585831e-02,1.588662341237068176e-02
9.400000000000000577e-01,1.458348333835601807e-01,3.394682705402374268e-01,1.071335468441247940e-02,1.602666452527046204e-02
9.500000000000000666e-01,1.456428468227386475e-01,3.393336534500122070e-01,1.083176396787166595e-02,1.616593077778816223e-02
9.599999999999999645e-01,1.454516202211380005e-01,3.391988575458526611e-01,1.095091365277767181e-02,1.630445942282676697e-02
9.699999999999999734e-01,1.452609449625015259e-01,3.390635848045349121e-01,1.107080187648534775e-02,1.644228026270866394e-02
9.799999999999999822e-01,1.450710296630859375e-01,3.389281928539276123e-01,1.119150407612323761e-02,1.657937839627265930e-02
9.899999999999999911e-01,1.448815762996673584e-01,3.387924134731292725e-01,1.131293550133705139e-02,1.671585068106651306e-02
1.000000000000000000e+00,1.446928232908248901e-01,3.386562168598175049e-01,1.143503747880458832e-02,1.685160771012306213e-02
1.010000000000000009e+00,1.445047557353973389e-01,3.385197818279266357e-01,1.155790407210588455e-02,1.698676124215126038e-02
1.020000000000000018e+00,1.443172693252563477e-01,3.383829891681671143e-01,1.168161351233720779e-02,1.712119206786155701e-02
1.030000000000000027e+00,1.441303640604019165e-01,3.382456600666046143e-01,1.180583052337169647e-02,1.725507155060768127e-02
1.040000000000000036e+00,1.439441591501235962e-01,3.381080329418182373e-01,1.193087734282016754e-02,1.738828793168067932e-02
1.050000000000000044e+00,1.437585800886154175e-01,3.379700183868408203e-01,1.205655559897422791e-02,1.752101257443428040e-02
1.060000000000000053e+00,1.435735523700714111e-01,3.378315269947052002e-01,1.218306086957454681e-02,1.765308156609535217e-02
1.070000000000000062e+00,1.433890759944915771e-01,3.376927077770233154e-01,1.231010444462299347e-02,1.778460666537284851e-02
1.080000000000000071e+00,1.432053148746490479e-01,3.375534415245056152e-01,1.243789494037628174e-02,1.791564002633094788e-02
1.090000000000000080e+00,1.430221945047378540e-01,3.374137282371520996e-01,1.256632804870605469e-02,1.804612204432487488e-02
1.100000000000000089e+00,1.428395956754684448e-01,3.372735679149627686e-01,1.269537955522537231e-02,1.817608997225761414e-02
1.110000000000000098e+00,1.426576524972915649e-01,3.371331989765167236e-01,1.282512396574020386e-02,1.830557361245155334e-02
1.120000000000000107e+00,1.424761861562728882e-01,3.369919955730438232e-01,1.295559853315353394e-02,1.843461021780967712e-02
1.130000000000000115e+00,1.422953158617019653e-01,3.368504047393798828e-01,1.308659277856349945e-02,1.856305822730064392e-02
1.140000000000000124e+00,1.421151757240295410e-01,3.367087244987487793e-01,1.321822218596935272e-02,1.869126781821250916e-02
1.150000000000000133e+00,1.419355124235153198e-01,3.365662992000579834e-01,1.335051283240318298e-02,1.881890371441841125e-02
1.159999999999999920e+00,1.417565792798995972e-01,3.364236652851104736e-01,1.348318345844745636e-02,1.894627884030342102e-02
1.169999999999999929e+00,1.415783464908599854e-01,3.362805843353271484e-01,1.361647807061672211e-02,1.907319948077201843e-02
1.179999999999999938e+00,1.414004266262054443e-01,3.361368179321289062e-01,1.375042460858821869e-02,1.919972524046897888e-02
1.189999999999999947e+00,1.412232667207717896e-01,3.359929323196411133e-01,1.388480700552463531e-02,1.932600513100624084e-02
1.199999999999999956e+00,1.410465836524963379e-01,3.358484804630279541e-01,1.401987299323081970e-02,1.945187523961067200e-02
1.209999999999999964e+00,1.408706009387969971e-01,3.357036411762237549e-01,1.415528543293476105e-02,1.957743987441062927e-02
1.219999999999999973e+00,1.406951248645782471e-01,3.355585038661956787e-01,1.429133675992488861e-02,1.970262452960014343e-02
1.229999999999999982e+00,1.405203193426132202e-01,3.354129791259765625e-01,1.442783884704113007e-02,1.982761546969413757e-02
1.239999999999999991e+00,1.403460353612899780e-01,3.352669477462768555e-01,1.456479914486408234e-02,1.995221152901649475e-02
1.250000000000000000e+00,1.401724219322204590e-01,3.351205885410308838e-01,1.470216736197471619e-02,2.007671073079109192e-02
1.260000000000000009e+00,1.399994194507598877e-01,3.349739313125610352e-01,1.484003663063049316e-02,2.020085230469703674e-02
1.270000000000000018e+00,1.398268789052963257e-01,3.348268568515777588e-01,1.497827470302581787e-02,2.032485231757164001e-02
1.280000000000000027e+00,1.396550238132476807e-01,3.346794843673706055e-01,1.511708833277225494e-02,2.044857665896415710e-02
1.290000000000000036e+00,1.394838094711303711e-01,3.345319926738739014e-01,1.525618135929107666e-02,2.057218179106712341e-02
1.300000000000000044e+00,1.393130272626876831e-01,3.343839645385742188e-01,1.539565436542034149e-02,2.069550380110740662e-02
1.310000000000000053e+00,1.391429007053375244e-01,3.342355787754058838e-01,1.553553156554698944e-02,2.081869170069694519e-02
1.320000000000000062e+00,1.389734745025634766e-01,3.340871036052703857e-01,1.567579805850982666e-02,2.094175294041633606e-02
1.330000000000000071e+00,1.388045251369476318e-01,3.339381814002990723e-01,1.581640727818012238e-02,2.106459811329841614e-02
1.340000000000000080e+00,1.386361718177795410e-01,3.337890803813934326e-01,1.595725119113922119e-02,2.118744328618049622e-02
1.350000000000000089e+00,1.384684145450592041e-01,3.336396813392639160e-01,1.609853096306324005e-02,2.131013199687004089e-02
1.360000000000000098e+00,1.383012831211090088e-01,3.334900736808776855e-01,1.624008268117904663e-02,2.143262699246406555e-02
1.370000000000000107e+00,1.381347477436065674e-01,3.333401978015899658e-01,1.638180762529373169e-02,2.155506983399391174e-02
1.380000000000000115e+00,1.379688829183578491e-01,3.331903815269470215e-01,1.652398705482482910e-02,2.167751267552375793e-02
1.390000000000000124e+00,1.378034353256225586e-01,3.330399990081787109e-01,1.666636951267719269e-02,2.179985120892524719e-02
1.400000000000000133e+00,1.376386284828186035e-01,3.328896164894104004e-01,1.680890098214149475e-02,2.192217484116554260e-02
1.409999999999999920e+00,1.374744474887847900e-01,3.327390253543853760e-01,1.695176772773265839e-02,2.204437181353569031e-02
1.419999999999999929e+00,1.373107135295867920e-01,3.325883448123931885e-01,1.709496416151523590e-02,2.216656878590583801e-02
1.429999999999999938e+00,1.371478587388992310e-01,3.324374556541442871e-01,1.723809540271759033e-02,2.228875830769538879e-02
1.439999999999999947e+00,1.369852423667907715e-01,3.322862684726715088e-01,1.738168485462665558e-02,2.241088077425956726e-02
1.449999999999999956e+00,1.368235200643539429e-01,3.321352303028106689e-01,1.752524264156818390e-02,2.253309264779090881e-02
1.459999999999999964e+00,1.366622895002365112e-01,3.319840729236602783e-01,1.766910776495933533e-02,2.265526726841926575e-02
1.469999999999999973e+00,1.365015506744384766e-01,3.318327069282531738e-01,1.781321875751018524e-02,2.277745679020881653e-02
1.479999999999999982e+00,1.363414674997329712e-01,3.316813707351684570e-01,1.795729063451290131e-02,2.289974316954612732e-02
1.489999999999999991e+00,1.361819356679916382e-01,3.315299749374389648e-01,1.810149662196636200e-02,2.302203699946403503e-02
1.500000000000000000e+00,1.360229700803756714e-01,3.313784599304199219e-01,1.824598945677280426e-02,2.314426377415657043e-02
1.510000000000000009e+00,1.358647048473358154e-01,3.312270045280456543e-01,1.839038170874118805e-02,2.326674386858940125e-02
1.520000000000000018e+00,1.357068270444869995e-01,3.310755193233489990e-01,1.853503286838531494e-02,2.338919416069984436e-02
1.530000000000000027e+00,1.355497688055038452e-01,3.309239447116851807e-01,1.867961511015892029e-02,2.351168915629386902e-02
1.540000000000000036e+00,1.353931277990341187e-01,3.307724297046661377e-01,1.882445253431797028e-02,2.363425120711326599e-02
1.550000000000000044e+00,1.352371424436569214e-01,3.306210637092590332e-01,1.896927319467067719e-02,2.375692501664161682e-02
1.560000000000000053e+00,1.350816488265991211e-01,3.304696083068847656e-01,1.911422796547412872e-02,2.387976273894309998e-02
1.570000000000000062e+00,1.349268108606338501e-01,3.303183019161224365e-01,1.925911381840705872e-02,2.400264516472816467e-02
1.580000000000000071e+00,1.347724348306655884e-01,3.301667869091033936e-01,1.940397359430789948e-02,2.412563189864158630e-02
